Tempo (s),RPM
0.009,0.0
0.019,0.0
0.029,0.0
0.039,0.0
0.049,60.0
0.059,90.0
0.069,240.0
0.079,360.0
0.089,510.0
0.099,630.0
0.109,810.0
0.119,930.0
0.129,1080.0
0.139,1200.0
0.149,1320.0
0.159,1410.0
0.169,1470.0
0.179,1560.0
0.189,1620.0
0.199,1650.0
0.209,1710.0
0.219,1740.0
0.229,1770.0
0.239,1770.0
0.249,1830.0
0.259,1830.0
0.269,1830.0
0.279,1860.0
0.289,1860.0
0.3,1860.0
0.309,1860.0
0.319,1860.0
0.329,1890.0
0.339,1890.0
0.349,1890.0
0.359,1890.0
0.369,1890.0
0.379,1920.0
0.389,1920.0
0.399,1920.0
0.409,1920.0
0.419,1920.0
0.429,1920.0
0.439,1920.0
0.449,1920.0
0.459,1920.0
0.47,1920.0
0.479,1920.0
0.489,1950.0
0.499,1920.0
0.509,1950.0
0.519,1950.0
0.529,1950.0
0.539,1950.0
0.549,1950.0
0.559,1950.0
0.569,1980.0
0.579,1950.0
0.589,1920.0
0.599,1950.0
0.609,1980.0
0.619,1950.0
0.629,1950.0
0.64,1980.0
0.649,1950.0
0.659,1950.0
0.669,1980.0
0.679,1980.0
0.689,1950.0
0.699,1950.0
0.709,1950.0
0.719,1980.0
0.729,1980.0
0.739,1950.0
0.749,1950.0
0.759,1980.0
0.769,1950.0
0.779,1980.0
0.789,2010.0
0.799,1980.0
0.809,1980.0
0.819,1980.0
0.829,1980.0
0.839,1980.0
0.849,1980.0
0.859,1980.0
0.869,1980.0
0.879,2010.0
0.889,1980.0
0.899,1980.0
0.909,1980.0
0.919,1950.0
0.929,1980.0
0.94,2010.0
0.949,1980.0
0.959,1980.0
0.969,1980.0
0.979,1980.0
0.989,1980.0
0.999,2010.0
1.009,1980.0
1.019,1980.0
1.029,2010.0
1.039,1980.0
1.049,1980.0
1.059,2010.0
1.069,1980.0
1.079,1980.0
1.089,2010.0
1.099,1980.0
1.11,1980.0
1.119,2010.0
1.129,1980.0
1.139,2010.0
1.149,2010.0
1.159,2010.0
1.169,2010.0
1.179,2010.0
1.189,1980.0
1.199,1980.0
1.209,2010.0
1.219,2010.0
1.229,1980.0
1.239,1980.0
1.249,1980.0
1.259,2010.0
1.269,2010.0
1.28,1980.0
1.289,2010.0
1.299,2010.0
1.309,1980.0
1.319,1980.0
1.329,2010.0
1.339,2010.0
1.349,2010.0
1.359,2010.0
1.369,1980.0
1.379,2010.0
1.389,2010.0
1.399,2010.0
1.409,1980.0
1.419,1980.0
1.429,1980.0
1.439,2010.0
1.449,2010.0
1.459,2010.0
1.469,1980.0
1.479,1980.0
1.489,1980.0
1.499,2010.0
1.509,2010.0
1.519,1980.0
1.529,2010.0
1.539,2010.0
1.549,1980.0
1.559,1980.0
1.569,2010.0
1.58,2010.0
1.589,1980.0
1.599,1980.0
1.609,1980.0
1.619,2010.0
1.629,2010.0
1.639,1980.0
1.649,1980.0
1.659,2010.0
1.669,1980.0
1.679,2010.0
1.689,2010.0
1.699,1980.0
1.709,2010.0
1.719,2010.0
1.729,2010.0
1.739,2010.0
1.75,2010.0
1.759,2010.0
1.769,2010.0
1.779,2010.0
1.789,2010.0
1.799,2010.0
1.809,2010.0
1.819,1980.0
1.829,2010.0
1.839,2010.0
1.849,2010.0
1.859,2010.0
1.869,2010.0
1.879,1980.0
1.889,2010.0
1.899,2010.0
1.909,1980.0
1.92,1980.0
1.929,2010.0
1.939,1980.0
1.949,2010.0
1.959,2010.0
1.969,2010.0
1.979,2010.0
1.989,2010.0
1.999,2010.0
2.269,2010.0
2.279,2010.0
2.289,1980.0
2.299,1980.0
2.309,2010.0
2.319,2010.0
2.329,1980.0
2.339,2010.0
2.349,2010.0
2.359,2010.0
2.369,2010.0
2.379,2010.0
2.39,1980.0
2.399,2010.0
2.409,2010.0
2.419,2010.0
2.429,1980.0
2.439,1980.0
2.449,2010.0
2.459,2010.0
2.469,1980.0
2.479,1980.0
2.489,1980.0
2.499,1980.0
2.509,1980.0
2.519,1980.0
2.529,2010.0
2.539,1980.0
2.549,2040.0
2.56,2010.0
2.569,1980.0
2.579,2010.0
2.589,2040.0
2.599,2010.0
2.609,2010.0
2.619,2010.0
2.629,2010.0
2.639,2040.0
2.649,2010.0
2.659,2010.0
2.669,2040.0
2.679,2010.0
2.689,2010.0
2.699,2040.0
2.709,2010.0
2.719,2010.0
2.729,2010.0
2.739,1980.0
2.749,2010.0
2.759,2010.0
2.769,2010.0
2.779,2010.0
2.789,2010.0
2.799,1980.0
2.809,1980.0
2.819,2010.0
2.829,2010.0
2.839,1980.0
2.849,1980.0
2.86,1980.0
2.869,1980.0
2.879,1980.0
2.889,2010.0
2.899,1980.0
2.909,2010.0
2.919,2010.0
2.929,1980.0
2.939,2010.0
2.949,1980.0
2.959,1980.0
2.969,1980.0
2.979,1980.0
2.989,1980.0
2.999,1980.0
3.009,1980.0
3.019,1980.0
3.03,2010.0
3.039,2010.0
3.049,1980.0
3.059,1980.0
3.069,1980.0
3.079,1980.0
3.089,1980.0
3.099,1980.0
3.109,2010.0
3.119,2010.0
3.129,1980.0
3.139,1980.0
3.149,2010.0
3.159,1980.0
3.169,1980.0
3.179,2010.0
3.189,2010.0
3.2,1980.0
3.209,2010.0
3.219,2010.0
3.229,1980.0
3.239,2010.0
3.249,1980.0
3.259,1980.0
3.269,2010.0
3.279,1980.0
3.289,2010.0
3.299,1980.0
3.309,1980.0
3.319,1980.0
3.329,1980.0
3.339,2010.0
3.349,1980.0
3.359,2010.0
3.369,2010.0
3.379,1980.0
3.389,1980.0
3.399,1980.0
3.409,2010.0
3.419,2010.0
3.429,2010.0
3.439,1980.0
3.449,1980.0
3.459,1980.0
3.469,1980.0
3.479,2010.0
3.489,1980.0
3.5,1980.0
3.509,2010.0
3.519,2010.0
3.529,1980.0
3.539,2010.0
3.549,2010.0
3.559,1980.0
3.569,1980.0
3.579,1980.0
3.589,2010.0
3.599,2010.0
3.609,1980.0
3.619,1980.0
3.629,2010.0
3.639,2010.0
3.649,1980.0
3.659,2010.0
3.67,2010.0
3.679,1980.0
3.689,2010.0
3.699,2010.0
3.709,1980.0
3.719,1980.0
3.729,1980.0
3.739,1980.0
3.749,1980.0
3.759,2010.0
3.769,1980.0
3.779,2010.0
3.789,2010.0
3.799,1980.0
3.809,1980.0
3.819,1980.0
3.829,1980.0
3.84,2010.0
3.849,2010.0
3.859,2010.0
3.869,2010.0
3.879,2010.0
3.889,2010.0
3.899,2040.0
3.909,2010.0
3.919,2010.0
3.929,2010.0
3.939,1980.0
3.949,1980.0
3.959,2040.0
3.969,1980.0
3.979,1980.0
3.989,2010.0
3.999,1980.0
4.009,2010.0
4.019,2040.0
4.029,1980.0
4.039,1980.0
4.049,2010.0
4.059,2010.0
4.069,1980.0
4.079,2010.0
4.089,2010.0
4.099,2010.0
4.109,2010.0
4.119,1980.0
4.129,1980.0
4.14,2010.0
4.149,1980.0
4.159,2010.0
4.169,2010.0
4.179,2010.0
4.189,2010.0
4.199,2010.0
4.209,2010.0
4.219,2010.0
4.229,2010.0
4.239,1980.0
4.249,1980.0
4.259,1980.0
4.529,2010.0
4.539,1980.0
4.549,1980.0
4.559,2010.0
4.569,1980.0
4.579,2010.0
4.589,2010.0
4.599,2010.0
4.609,1980.0
4.619,2010.0
4.629,1980.0
4.639,2010.0
4.649,2010.0
4.659,2010.0
4.669,2010.0
4.679,2010.0
4.689,1980.0
4.699,2010.0
4.709,2010.0
4.719,2010.0
4.729,2010.0
4.739,2010.0
4.749,2010.0
4.759,2010.0
4.769,2010.0
4.78,1980.0
4.789,1980.0
4.799,2010.0
4.809,1980.0
4.819,2010.0
4.829,2010.0
4.839,1980.0
4.849,1980.0
4.859,2010.0
4.869,1980.0
4.879,2010.0
4.889,2010.0
4.899,1980.0
4.909,2010.0
4.919,2010.0
4.929,1980.0
4.939,2010.0
4.95,2010.0
4.959,2010.0
4.969,2010.0
4.979,2010.0
4.989,1980.0
4.999,2010.0
5.009,2010.0
5.019,2010.0
5.029,2010.0
5.039,2010.0
5.049,1980.0
5.059,1980.0
5.069,2010.0
5.079,1980.0
5.089,2010.0
5.099,2010.0
5.109,2010.0
5.12,2010.0
5.129,2010.0
5.139,1980.0
5.149,2010.0
5.159,2010.0
5.169,1980.0
5.179,1980.0
5.189,1980.0
5.199,1980.0
5.209,2010.0
5.219,2010.0
5.229,2010.0
5.239,2010.0
5.249,2010.0
5.259,1980.0
5.269,1980.0
5.279,2010.0
5.289,1980.0
5.299,1980.0
5.309,1980.0
5.319,1980.0
5.329,2010.0
5.339,2010.0
5.349,1980.0
5.359,2010.0
5.369,2010.0
5.379,2010.0
5.389,2010.0
5.399,2010.0
5.409,1980.0
5.42,2010.0
5.429,2010.0
5.439,1980.0
5.449,2010.0
5.459,2010.0
5.469,1980.0
5.479,1980.0
5.489,1980.0
5.499,1980.0
5.509,2010.0
5.519,2010.0
5.529,1980.0
5.539,1980.0
5.549,2010.0
5.559,1980.0
5.569,2010.0
5.579,2010.0
5.59,2010.0
5.599,2010.0
5.609,2010.0
5.619,2010.0
5.629,2010.0
5.639,2010.0
5.649,2010.0
5.659,2010.0
5.669,2010.0
5.679,1980.0
5.689,1980.0
5.699,1980.0
5.709,1980.0
5.719,2010.0
5.729,2010.0
5.739,2010.0
5.749,2010.0
5.76,2010.0
5.769,1980.0
5.779,1980.0
5.789,1980.0
5.799,1980.0
5.809,2010.0
5.819,2010.0
5.829,2010.0
5.839,2010.0
5.849,2010.0
5.859,1980.0
5.869,2010.0
5.879,2010.0
5.889,1980.0
5.899,2010.0
5.909,2010.0
5.919,2010.0
5.929,2010.0
5.939,2010.0
5.949,2010.0
5.959,2010.0
5.969,2010.0
5.979,2010.0
5.989,2010.0
5.999,2010.0
6.009,2010.0
6.019,2010.0
6.029,2010.0
6.039,2010.0
6.049,2010.0
6.06,2010.0
6.069,2010.0
6.079,2010.0
6.089,2010.0
6.099,1980.0
6.109,2010.0
6.119,2010.0
6.129,2010.0
6.139,2010.0
6.149,1980.0
6.159,1980.0
6.169,2010.0
6.179,2010.0
6.189,1980.0
6.199,2010.0
6.209,2010.0
6.219,1980.0
6.23,1980.0
6.239,1980.0
6.249,2010.0
6.259,2010.0
6.269,1980.0
6.279,2010.0
6.289,2010.0
6.299,2010.0
6.309,1980.0
6.319,2010.0
6.329,1980.0
6.339,1980.0
6.349,2010.0
6.359,2010.0
6.369,2010.0
6.379,2010.0
6.389,1980.0
6.4,1980.0
6.409,2010.0
6.419,2010.0
6.429,2010.0
6.439,2010.0
6.449,1980.0
6.459,1980.0
6.469,2010.0
6.479,2010.0
6.489,1980.0
6.499,2010.0
6.509,1980.0
6.519,2010.0
6.789,2010.0
6.799,2010.0
6.809,2010.0
6.819,1980.0
6.829,2010.0
6.839,2010.0
6.849,1980.0
6.859,2010.0
6.87,2010.0
6.879,1980.0
6.889,2010.0
6.899,1980.0
6.909,1980.0
6.919,2010.0
6.929,1980.0
6.939,2010.0
6.949,2010.0
6.959,2010.0
6.969,2010.0
6.979,2010.0
6.989,2010.0
6.999,1980.0
7.009,2010.0
7.019,1980.0
7.029,2010.0
7.04,2010.0
7.049,1980.0
7.059,1980.0
7.069,2010.0
7.079,2010.0
7.089,2010.0
7.099,2010.0
7.109,1980.0
7.119,1980.0
7.129,2010.0
7.139,2010.0
7.149,2010.0
7.159,2010.0
7.169,2010.0
7.179,1980.0
7.189,1980.0
7.199,1980.0
7.209,2010.0
7.219,2010.0
7.229,2010.0
7.239,2010.0
7.249,2010.0
7.259,1980.0
7.269,2010.0
7.279,2010.0
7.289,2010.0
7.299,1980.0
7.309,1980.0
7.319,1980.0
7.329,2010.0
7.34,2010.0
7.349,1980.0
7.359,1980.0
7.369,2010.0
7.379,1980.0
7.389,2010.0
7.399,2010.0
7.409,1980.0
7.419,1980.0
7.429,2010.0
7.439,1980.0
7.449,2010.0
7.459,2010.0
7.469,1980.0
7.479,2010.0
7.489,2010.0
7.499,1980.0
7.51,2010.0
7.519,2010.0
7.529,1980.0
7.539,1980.0
7.549,2010.0
7.559,1980.0
7.569,1980.0
7.579,2010.0
7.589,1980.0
7.599,1980.0
7.609,2010.0
7.619,1980.0
7.629,1980.0
7.639,2010.0
7.649,1980.0
7.659,1980.0
7.669,2010.0
7.68,2010.0
7.689,2010.0
7.699,2010.0
7.709,2010.0
7.719,2010.0
7.729,2010.0
7.739,1980.0
7.749,2010.0
7.759,2010.0
7.769,1980.0
7.779,2010.0
7.789,2010.0
7.799,1980.0
7.809,2010.0
7.819,2010.0
7.829,2010.0
7.839,2010.0
7.849,2010.0
7.859,1980.0
7.869,2010.0
7.879,2010.0
7.889,1980.0
7.899,1980.0
7.909,2010.0
7.919,1980.0
7.929,1980.0
7.939,1980.0
7.949,2010.0
7.959,1980.0
7.969,1980.0
7.98,1980.0
7.989,2010.0
7.999,2010.0
8.009,1980.0
8.019,1980.0
8.029,1980.0
8.039,1980.0
8.049,1980.0
8.059,1980.0
8.069,1980.0
8.079,2010.0
8.089,2010.0
8.099,2010.0
8.109,2010.0
8.119,2010.0
8.129,2010.0
8.139,2010.0
8.15,2010.0
8.159,2010.0
8.169,2010.0
8.179,2010.0
8.189,2010.0
8.199,1980.0
8.209,2010.0
8.219,1980.0
8.229,2010.0
8.239,2010.0
8.249,1980.0
8.259,2010.0
8.269,2010.0
8.279,2010.0
8.289,1980.0
8.299,2010.0
8.309,2010.0
8.32,1980.0
8.329,1980.0
8.339,1980.0
8.349,2010.0
8.359,2010.0
8.369,1980.0
8.379,2010.0
8.389,2010.0
8.399,1980.0
8.409,2010.0
8.419,2010.0
8.429,2010.0
8.439,2010.0
8.449,2010.0
8.459,2010.0
8.469,2010.0
8.479,2010.0
8.489,1980.0
8.499,2010.0
8.509,2010.0
8.519,2010.0
8.529,1980.0
8.539,2010.0
8.549,1980.0
8.559,2010.0
8.569,2010.0
8.579,2010.0
8.589,2010.0
8.599,2010.0
8.609,1980.0
8.62,2010.0
8.629,1980.0
8.639,1980.0
8.649,2010.0
8.659,2010.0
8.669,2010.0
8.679,2010.0
8.689,2010.0
8.699,1980.0
8.709,1980.0
8.719,1980.0
8.729,1980.0
8.739,2010.0
8.749,2010.0
8.759,1980.0
8.769,2010.0
8.779,2010.0
9.049,2010.0
9.059,1980.0
9.069,2010.0
9.079,2010.0
9.089,2010.0
9.099,2010.0
9.109,2010.0
9.119,1980.0
9.129,1980.0
9.139,2010.0
9.149,1980.0
9.159,1980.0
9.169,1980.0
9.179,2010.0
9.189,2010.0
9.199,2010.0
9.209,1980.0
9.219,2010.0
9.229,2010.0
9.239,2010.0
9.249,2010.0
9.26,2010.0
9.269,1980.0
9.279,2010.0
9.289,2010.0
9.299,2010.0
9.309,2010.0
9.319,2010.0
9.329,1980.0
9.339,2010.0
9.349,2010.0
9.359,2010.0
9.369,2010.0
9.379,2010.0
9.389,2010.0
9.399,2010.0
9.409,2010.0
9.419,1980.0
9.43,2010.0
9.439,1980.0
9.449,2010.0
9.459,2010.0
9.469,2010.0
9.479,2010.0
9.489,2010.0
9.499,2010.0
9.509,1980.0
9.519,2010.0
9.529,1980.0
9.539,1980.0
9.549,2010.0
9.559,2010.0
9.569,1980.0
9.579,2010.0
9.589,1980.0
9.6,2010.0
9.609,1980.0
9.619,1980.0
9.629,1980.0
9.639,1980.0
9.649,2010.0
9.659,1980.0
9.669,1980.0
9.679,1980.0
9.689,1980.0
9.699,2010.0
9.709,2010.0
9.719,1980.0
9.729,1980.0
9.739,1980.0
9.749,1980.0
9.759,2010.0
9.769,2010.0
9.779,2010.0
9.789,2010.0
9.799,2010.0
9.809,2010.0
9.819,2010.0
9.829,2010.0
9.839,2010.0
9.849,2010.0
9.859,2010.0
9.869,2010.0
9.879,2010.0
9.889,1980.0
9.9,1980.0
9.909,2010.0
9.919,2010.0
9.929,2010.0
9.939,2010.0
9.949,2010.0
9.959,2010.0
9.969,2010.0
9.979,1980.0
9.989,2010.0
9.999,2010.0
10.009,2010.0
10.019,2010.0
10.029,2010.0
10.039,2010.0
10.049,2010.0
10.059,2010.0
10.07,2010.0
10.079,2010.0
10.089,2010.0
10.099,2010.0
10.109,2010.0
10.119,2010.0
10.129,1980.0
10.139,1980.0
10.149,2010.0
10.159,2010.0
10.169,1980.0
10.179,2010.0
10.189,1980.0
10.199,1980.0
10.209,1980.0
10.219,1980.0
10.229,2010.0
10.24,2010.0
10.249,1980.0
10.259,1980.0
10.269,2010.0
10.279,2010.0
10.289,2010.0
10.299,2010.0
10.309,2010.0
10.319,2010.0
10.329,2010.0
10.339,1980.0
10.349,1980.0
10.359,1980.0
10.369,1980.0
10.379,1980.0
10.389,2010.0
10.399,2010.0
10.409,1980.0
10.419,2010.0
10.429,1980.0
10.439,2010.0
10.449,2010.0
10.459,1980.0
10.469,1980.0
10.479,2010.0
10.489,2010.0
10.499,1980.0
10.509,2010.0
10.519,1980.0
10.529,2010.0
10.539,2010.0
10.549,1980.0
10.559,1980.0
10.569,2040.0
10.579,1980.0
10.589,2010.0
10.599,2010.0
10.609,1980.0
10.619,2010.0
10.629,2010.0
10.639,1980.0
10.649,2010.0
10.659,2040.0
10.669,1980.0
10.679,2010.0
10.689,2010.0
10.699,1980.0
10.71,2010.0
10.719,2040.0
10.729,1980.0
10.739,1980.0
10.749,2010.0
10.759,2010.0
10.769,2010.0
10.779,2010.0
10.789,2010.0
10.799,1980.0
10.809,2010.0
10.819,1980.0
10.829,1980.0
10.839,2010.0
10.849,2010.0
10.859,2010.0
10.869,2010.0
10.88,1980.0
10.889,2010.0
10.899,2010.0
10.909,1980.0
10.919,1980.0
10.929,2010.0
10.939,1980.0
10.949,2010.0
10.959,2010.0
10.969,1980.0
10.979,1980.0
10.989,2010.0
10.999,1980.0
11.009,2010.0
11.019,2010.0
11.029,1980.0
11.039,2010.0
11.319,2040.0
11.329,1980.0
11.339,1980.0
11.35,2010.0
11.359,1980.0
11.369,2010.0
11.379,2010.0
11.389,1980.0
11.399,2010.0
11.409,2010.0
11.419,1980.0
11.429,2010.0
11.439,2010.0
11.449,2010.0
11.459,2010.0
11.469,2010.0
11.479,1980.0
11.489,2010.0
11.499,2010.0
11.509,1980.0
11.52,2010.0
11.529,2010.0
11.539,1980.0
11.549,1980.0
11.559,2010.0
11.569,1980.0
11.579,2010.0
11.589,2010.0
11.599,2010.0
11.609,2010.0
11.619,2010.0
11.629,2010.0
11.639,2010.0
11.649,2010.0
11.659,2010.0
11.669,2010.0
11.679,2010.0
11.689,1980.0
11.699,1980.0
11.709,2010.0
11.719,2010.0
11.729,1980.0
11.739,1980.0
11.749,1980.0
11.759,2010.0
11.769,2010.0
11.779,2010.0
11.789,2010.0
11.799,2010.0
11.809,1980.0
11.82,2010.0
11.829,2010.0
11.839,1980.0
11.849,2010.0
11.859,2010.0
11.869,1980.0
11.879,1980.0
11.889,1980.0
11.899,2010.0
11.909,2010.0
11.919,2010.0
11.929,1980.0
11.939,1980.0
11.949,1980.0
11.959,2010.0
11.969,2010.0
11.979,2010.0
11.99,1980.0
11.999,2010.0
12.009,2010.0
12.019,1980.0
12.029,1980.0
12.039,1980.0
12.049,1980.0
12.059,2010.0
12.069,2010.0
12.079,2010.0
12.089,2010.0
12.099,2010.0
12.109,1980.0
12.119,2010.0
12.129,2010.0
12.139,1980.0
12.149,2010.0
12.16,1980.0
12.169,2010.0
12.179,2010.0
12.189,2010.0
12.199,1980.0
12.209,1980.0
12.219,2010.0
12.229,1980.0
12.239,2010.0
12.249,2010.0
12.259,2010.0
12.269,2010.0
12.279,2010.0
12.289,1980.0
12.299,1980.0
12.309,1980.0
12.319,1980.0
12.329,1980.0
12.339,1980.0
12.349,2010.0
12.359,2010.0
12.369,2010.0
12.379,1980.0
12.389,2010.0
12.399,1980.0
12.409,1980.0
12.419,2010.0
12.429,2010.0
12.439,2010.0
12.449,2010.0
12.46,2010.0
12.469,2010.0
12.479,2010.0
12.489,2010.0
12.499,2010.0
12.509,2010.0
12.519,1980.0
12.529,1980.0
12.539,2010.0
12.549,2010.0
12.559,2010.0
12.569,2010.0
12.579,2010.0
12.589,1980.0
12.599,2010.0
12.609,2010.0
12.619,2010.0
12.63,2010.0
12.639,1980.0
12.649,1980.0
12.659,2010.0
12.669,1980.0
12.679,1980.0
12.689,2010.0
12.699,2010.0
12.709,1980.0
12.719,1980.0
12.729,1980.0
12.739,2010.0
12.749,2010.0
12.759,2010.0
12.769,1980.0
12.779,2010.0
12.789,1980.0
12.8,1980.0
12.809,2010.0
12.819,1980.0
12.829,1980.0
12.839,2010.0
12.849,2010.0
12.859,1980.0
12.869,1980.0
12.879,1980.0
12.889,2010.0
12.899,1980.0
12.909,1980.0
12.919,1980.0
12.929,2010.0
12.939,2010.0
12.949,2010.0
12.959,2010.0
12.969,2010.0
12.979,2010.0
12.989,2010.0
12.999,2010.0
13.009,2010.0
13.019,2010.0
13.029,2010.0
13.039,1980.0
13.049,2010.0
13.059,2010.0
13.069,2010.0
13.079,2010.0
13.089,1980.0
13.1,1980.0
13.109,2010.0
13.119,2010.0
13.129,1980.0
13.139,2010.0
13.149,1980.0
13.159,1980.0
13.169,2010.0
13.179,2010.0
13.189,2010.0
13.199,2010.0
13.209,2010.0
13.219,1980.0
13.229,2010.0
13.239,2010.0
13.249,1980.0
13.259,1980.0
13.27,1980.0
13.279,2010.0
13.289,2010.0
13.299,2010.0
13.309,2010.0
13.599,2010.0
13.609,1980.0
13.619,1980.0
13.629,1980.0
13.639,2010.0
13.649,2010.0
13.659,2010.0
13.669,2010.0
13.679,2010.0
13.689,2010.0
13.699,2010.0
13.709,2010.0
13.719,1980.0
13.729,2010.0
13.74,2010.0
13.749,2010.0
13.759,1980.0
13.769,1980.0
13.779,1980.0
13.789,2010.0
13.799,2010.0
13.809,1980.0
13.819,2010.0
13.829,2010.0
13.839,1980.0
13.849,2010.0
13.859,2010.0
13.869,2010.0
13.879,2010.0
13.889,2010.0
13.899,1980.0
13.91,2010.0
13.919,2010.0
13.929,1980.0
13.939,2010.0
13.949,2010.0
13.959,1980.0
13.969,2010.0
13.979,2010.0
13.989,1980.0
13.999,1980.0
14.009,2010.0
14.019,1980.0
14.029,2010.0
14.039,1980.0
14.049,2010.0
14.059,1980.0
14.069,2010.0
14.08,1980.0
14.089,2010.0
14.099,2010.0
14.109,2010.0
14.119,2010.0
14.129,2010.0
14.139,1980.0
14.149,2010.0
14.159,2010.0
14.169,2010.0
14.179,2010.0
14.189,2010.0
14.199,1980.0
14.209,2010.0
14.219,2010.0
14.229,1980.0
14.239,1980.0
14.249,2010.0
14.259,2010.0
14.269,2010.0
14.279,2010.0
14.289,1980.0
14.299,2010.0
14.309,2010.0
14.319,1980.0
14.329,2010.0
14.339,2010.0
14.349,1980.0
14.359,1980.0
14.369,2010.0
14.38,2010.0
14.389,2010.0
14.399,2010.0
14.409,1980.0
14.419,2010.0
14.429,2010.0
14.439,2010.0
14.449,1980.0
14.459,2010.0
14.469,1980.0
14.479,2010.0
14.489,2010.0
14.499,2010.0
14.509,2010.0
14.519,2010.0
14.529,1980.0
14.539,2010.0
14.55,2010.0
14.559,1980.0
14.569,2010.0
14.579,2010.0
14.589,1980.0
14.599,1980.0
14.609,1980.0
14.619,1980.0
14.629,2010.0
14.639,2010.0
14.649,1980.0
14.659,1980.0
14.669,1980.0
14.679,2010.0
14.689,2010.0
14.699,2010.0
14.709,1980.0
14.72,2010.0
14.729,2010.0
14.739,1980.0
14.749,1980.0
14.759,2010.0
14.769,1980.0
14.779,2010.0
14.789,2010.0
14.799,2010.0
14.809,2010.0
14.819,2010.0
14.829,1980.0
14.839,2010.0
14.849,1980.0
14.859,1980.0
14.869,2010.0
14.879,2010.0
14.889,2010.0
14.899,1980.0
14.909,1980.0
14.919,2010.0
14.929,2010.0
14.939,2010.0
14.949,1980.0
14.959,2010.0
14.969,2010.0
14.979,1980.0
14.989,2010.0
14.999,2010.0
15.009,1980.0
15.02,2010.0
15.029,2010.0
15.039,1980.0
15.049,1980.0
15.059,1980.0
15.069,2010.0
15.079,1980.0
15.089,1980.0
15.099,1980.0
15.109,2010.0
15.119,2010.0
15.129,2010.0
15.139,2010.0
15.149,2010.0
15.159,1980.0
15.169,2010.0
15.179,2010.0
15.19,1980.0
15.199,1980.0
15.209,2010.0
15.219,1980.0
15.229,2010.0
15.239,2010.0
15.249,1980.0
15.259,2010.0
15.269,2010.0
15.279,1980.0
15.289,1980.0
15.299,1980.0
15.309,1980.0
15.319,2010.0
15.329,2010.0
15.339,1980.0
15.349,2010.0
15.36,2010.0
15.369,1980.0
15.379,2010.0
15.389,2010.0
15.399,1980.0
15.409,2010.0
15.419,2010.0
15.429,2010.0
15.439,2010.0
15.449,2010.0
15.459,1980.0
15.469,2010.0
15.479,1980.0
15.489,1980.0
15.499,2010.0
15.509,1980.0
15.519,1980.0
15.529,2010.0
15.539,2010.0
15.549,2010.0
15.559,2010.0
15.569,2010.0
15.579,2010.0
15.589,2010.0
15.879,1980.0
15.889,2010.0
15.899,2010.0
15.909,1980.0
15.919,2010.0
15.929,2010.0
15.939,1980.0
15.949,2010.0
15.959,2010.0
15.969,1980.0
15.979,1980.0
15.989,1980.0
16.0,1980.0
16.009,2010.0
16.019,1980.0
16.029,1980.0
16.039,2010.0
16.049,1980.0
16.059,2010.0
16.069,2010.0
16.079,2010.0
16.089,1980.0
16.099,1980.0
16.109,1980.0
16.119,1980.0
16.129,2010.0
16.139,2010.0
16.149,1980.0
16.159,1980.0
16.169,2010.0
16.179,1980.0
16.189,1980.0
16.199,2010.0
16.209,1980.0
16.219,1980.0
16.229,2010.0
16.239,1980.0
16.249,2010.0
16.259,1980.0
16.269,1980.0
16.279,2010.0
16.289,2010.0
16.3,2010.0
16.309,2010.0
16.319,2010.0
16.329,2010.0
16.339,2010.0
16.349,2010.0
16.359,1980.0
16.369,2010.0
16.379,2010.0
16.389,1980.0
16.399,2010.0
16.409,1980.0
16.419,1980.0
16.429,2010.0
16.439,1980.0
16.449,2010.0
16.459,2010.0
16.47,2010.0
16.479,1980.0
16.489,2010.0
16.499,2010.0
16.509,2010.0
16.519,2010.0
16.529,2010.0
16.539,2010.0
16.549,2040.0
16.559,2010.0
16.569,2010.0
16.579,2010.0
16.589,2010.0
16.599,2010.0
16.609,2010.0
16.619,1980.0
16.629,2010.0
16.64,2010.0
16.649,2010.0
16.659,2010.0
16.669,2010.0
16.679,2010.0
16.689,1980.0
16.699,2010.0
16.709,1980.0
16.719,1980.0
16.729,2010.0
16.739,2010.0
16.749,2010.0
16.759,2010.0
16.769,1980.0
16.779,1980.0
16.789,2010.0
16.799,1980.0
16.809,1980.0
16.819,1980.0
16.829,1980.0
16.839,1980.0
16.849,1980.0
