Tempo (s),RPM
0.009,0.0
0.019,0.0
0.029,0.0
0.039,0.0
0.049,30.0
0.059,60.0
0.069,120.0
0.079,210.0
0.089,300.0
0.099,420.0
0.109,540.0
0.119,630.0
0.129,780.0
0.139,870.0
0.149,990.0
0.159,1080.0
0.169,1140.0
0.179,1230.0
0.189,1320.0
0.199,1350.0
0.209,1410.0
0.219,1440.0
0.229,1470.0
0.239,1500.0
0.249,1500.0
0.259,1530.0
0.269,1560.0
0.279,1560.0
0.289,1560.0
0.3,1590.0
0.309,1560.0
0.319,1590.0
0.329,1590.0
0.339,1560.0
0.349,1590.0
0.359,1560.0
0.369,1590.0
0.379,1560.0
0.389,1590.0
0.399,1560.0
0.409,1560.0
0.419,1560.0
0.429,1560.0
0.439,1530.0
0.449,1560.0
0.459,1530.0
0.47,1560.0
0.479,1530.0
0.489,1530.0
0.499,1530.0
0.509,1560.0
0.519,1530.0
0.529,1500.0
0.539,1530.0
0.549,1530.0
0.559,1500.0
0.569,1530.0
0.579,1500.0
0.589,1530.0
0.599,1500.0
0.609,1500.0
0.619,1530.0
0.629,1500.0
0.64,1500.0
0.649,1530.0
0.659,1500.0
0.669,1530.0
0.679,1500.0
0.689,1500.0
0.699,1500.0
0.709,1500.0
0.719,1500.0
0.729,1470.0
0.739,1500.0
0.749,1500.0
0.759,1500.0
0.769,1500.0
0.779,1500.0
0.789,1500.0
0.799,1500.0
0.809,1500.0
0.819,1500.0
0.829,1500.0
0.839,1500.0
0.849,1500.0
0.859,1530.0
0.869,1500.0
0.879,1500.0
0.889,1500.0
0.899,1500.0
0.909,1500.0
0.919,1500.0
0.929,1500.0
0.94,1500.0
0.949,1500.0
0.959,1500.0
0.969,1500.0
0.979,1500.0
0.989,1500.0
0.999,1500.0
1.009,1500.0
1.019,1500.0
1.029,1500.0
1.039,1500.0
1.049,1500.0
1.059,1530.0
1.069,1500.0
1.079,1500.0
1.089,1500.0
1.099,1500.0
1.11,1500.0
1.119,1500.0
1.129,1500.0
1.139,1530.0
1.149,1500.0
1.159,1500.0
1.169,1500.0
1.179,1500.0
1.189,1500.0
1.199,1500.0
1.209,1500.0
1.219,1500.0
1.229,1530.0
1.239,1470.0
1.249,1500.0
1.259,1500.0
1.269,1530.0
1.28,1470.0
1.289,1500.0
1.299,1530.0
1.309,1500.0
1.319,1500.0
1.329,1500.0
1.339,1500.0
1.349,1500.0
1.359,1500.0
1.369,1500.0
1.379,1500.0
1.389,1530.0
1.399,1500.0
1.409,1470.0
1.419,1530.0
1.429,1500.0
1.439,1500.0
1.449,1500.0
1.459,1500.0
1.469,1500.0
1.479,1500.0
1.489,1500.0
1.499,1500.0
1.509,1500.0
1.519,1500.0
1.529,1470.0
1.539,1500.0
1.549,1500.0
1.559,1500.0
1.569,1470.0
1.58,1500.0
1.589,1500.0
1.599,1500.0
1.609,1470.0
1.619,1500.0
1.629,1500.0
1.639,1500.0
1.649,1470.0
1.659,1500.0
1.669,1500.0
1.679,1500.0
1.689,1500.0
1.699,1500.0
1.709,1500.0
1.719,1470.0
1.729,1500.0
1.739,1500.0
1.75,1500.0
1.759,1470.0
1.769,1470.0
1.779,1500.0
1.789,1500.0
1.799,1500.0
1.809,1470.0
1.819,1500.0
1.829,1500.0
1.839,1500.0
1.849,1500.0
1.859,1500.0
1.869,1500.0
1.879,1500.0
1.889,1500.0
1.899,1500.0
1.909,1500.0
1.92,1500.0
1.929,1500.0
1.939,1500.0
1.949,1500.0
1.959,1500.0
1.969,1470.0
1.979,1500.0
1.989,1500.0
1.999,1500.0
2.269,1530.0
2.279,1500.0
2.289,1470.0
2.299,1500.0
2.309,1530.0
2.319,1500.0
2.329,1500.0
2.339,1500.0
2.349,1500.0
2.359,1500.0
2.369,1500.0
2.379,1500.0
2.39,1530.0
2.399,1500.0
2.409,1500.0
2.419,1500.0
2.429,1500.0
2.439,1500.0
2.449,1500.0
2.459,1500.0
2.469,1500.0
2.479,1500.0
2.489,1500.0
2.499,1500.0
2.509,1530.0
2.519,1500.0
2.529,1470.0
2.539,1530.0
2.549,1500.0
2.56,1500.0
2.569,1500.0
2.579,1500.0
2.589,1500.0
2.599,1500.0
2.609,1500.0
2.619,1500.0
2.629,1530.0
2.639,1470.0
2.649,1500.0
2.659,1500.0
2.669,1530.0
2.679,1500.0
2.689,1500.0
2.699,1500.0
2.709,1500.0
2.719,1500.0
2.729,1500.0
2.739,1500.0
2.749,1500.0
2.759,1500.0
2.769,1500.0
2.779,1500.0
2.789,1530.0
2.799,1470.0
2.809,1500.0
2.819,1500.0
2.829,1500.0
2.839,1500.0
2.849,1500.0
2.86,1500.0
2.869,1500.0
2.879,1500.0
2.889,1470.0
2.899,1500.0
2.909,1500.0
2.919,1500.0
2.929,1500.0
2.939,1500.0
2.949,1500.0
2.959,1500.0
2.969,1470.0
2.979,1500.0
2.989,1500.0
2.999,1500.0
3.009,1500.0
3.019,1500.0
3.03,1500.0
3.039,1500.0
3.049,1470.0
3.059,1500.0
3.069,1530.0
3.079,1500.0
3.089,1500.0
3.099,1500.0
3.109,1500.0
3.119,1500.0
3.129,1500.0
3.139,1500.0
3.149,1500.0
3.159,1500.0
3.169,1500.0
3.179,1530.0
3.189,1500.0
3.2,1500.0
3.209,1500.0
3.219,1500.0
3.229,1500.0
3.239,1500.0
3.249,1500.0
3.259,1500.0
3.269,1500.0
3.279,1500.0
3.289,1500.0
3.299,1500.0
3.309,1530.0
3.319,1500.0
3.329,1500.0
3.339,1500.0
3.349,1500.0
3.359,1500.0
3.369,1500.0
3.379,1500.0
3.389,1500.0
3.399,1470.0
3.409,1500.0
3.419,1500.0
3.429,1500.0
3.439,1500.0
3.449,1500.0
3.459,1500.0
3.469,1500.0
3.479,1500.0
3.489,1500.0
3.5,1500.0
3.509,1500.0
3.519,1500.0
3.529,1470.0
3.539,1500.0
3.549,1500.0
3.559,1500.0
3.569,1470.0
3.579,1500.0
3.589,1500.0
3.599,1500.0
3.609,1500.0
3.619,1500.0
3.629,1500.0
3.639,1500.0
3.649,1500.0
3.659,1500.0
3.67,1500.0
3.679,1500.0
3.689,1500.0
3.699,1530.0
3.709,1500.0
3.719,1500.0
3.729,1500.0
3.739,1500.0
3.749,1500.0
3.759,1500.0
3.769,1500.0
3.779,1500.0
3.789,1500.0
3.799,1500.0
3.809,1500.0
3.819,1530.0
3.829,1500.0
3.84,1500.0
3.849,1500.0
3.859,1500.0
3.869,1500.0
3.879,1500.0
3.889,1500.0
3.899,1500.0
3.909,1500.0
3.919,1500.0
3.929,1500.0
3.939,1500.0
3.949,1530.0
3.959,1470.0
3.969,1500.0
3.979,1530.0
3.989,1500.0
3.999,1500.0
4.009,1500.0
4.019,1500.0
4.029,1500.0
4.039,1500.0
4.049,1470.0
4.059,1500.0
4.069,1530.0
4.079,1470.0
4.089,1500.0
4.099,1500.0
4.109,1500.0
4.119,1500.0
4.129,1500.0
4.14,1500.0
4.149,1500.0
4.159,1500.0
4.169,1470.0
4.179,1500.0
4.189,1500.0
4.199,1500.0
4.209,1500.0
4.219,1500.0
4.229,1500.0
4.239,1470.0
4.249,1500.0
4.259,1500.0
4.529,1500.0
4.539,1500.0
4.549,1530.0
4.559,1500.0
4.569,1500.0
4.579,1500.0
4.589,1500.0
4.599,1470.0
4.609,1500.0
4.619,1500.0
4.629,1500.0
4.639,1500.0
4.649,1500.0
4.659,1500.0
4.669,1530.0
4.679,1500.0
4.689,1500.0
4.699,1500.0
4.709,1530.0
4.719,1500.0
4.729,1470.0
4.739,1530.0
4.749,1500.0
4.759,1500.0
4.769,1500.0
4.78,1500.0
4.789,1500.0
4.799,1500.0
4.809,1470.0
4.819,1500.0
4.829,1500.0
4.839,1500.0
4.849,1470.0
4.859,1500.0
4.869,1500.0
4.879,1470.0
4.889,1500.0
4.899,1470.0
4.909,1500.0
4.919,1500.0
4.929,1470.0
4.939,1500.0
4.95,1500.0
4.959,1500.0
4.969,1500.0
4.979,1500.0
4.989,1500.0
4.999,1500.0
5.009,1500.0
5.019,1500.0
5.029,1500.0
5.039,1500.0
5.049,1470.0
5.059,1500.0
5.069,1500.0
5.079,1470.0
5.089,1500.0
5.099,1500.0
5.109,1500.0
5.12,1500.0
5.129,1500.0
5.139,1500.0
5.149,1500.0
5.159,1500.0
5.169,1500.0
5.179,1500.0
5.189,1530.0
5.199,1500.0
5.209,1500.0
5.219,1500.0
5.229,1500.0
5.239,1500.0
5.249,1500.0
5.259,1500.0
5.269,1500.0
5.279,1500.0
5.289,1500.0
5.299,1500.0
5.309,1500.0
5.319,1500.0
5.329,1500.0
5.339,1500.0
5.349,1500.0
5.359,1500.0
5.369,1500.0
5.379,1500.0
5.389,1530.0
5.399,1500.0
5.409,1500.0
5.42,1500.0
5.429,1500.0
5.439,1500.0
5.449,1500.0
5.459,1500.0
5.469,1530.0
5.479,1500.0
5.489,1470.0
5.499,1500.0
5.509,1500.0
5.519,1500.0
5.529,1500.0
5.539,1530.0
5.549,1500.0
5.559,1500.0
5.569,1500.0
5.579,1500.0
5.59,1500.0
5.599,1500.0
5.609,1500.0
5.619,1500.0
5.629,1530.0
5.639,1500.0
5.649,1470.0
5.659,1530.0
5.669,1500.0
5.679,1500.0
5.689,1470.0
5.699,1530.0
5.709,1500.0
5.719,1500.0
5.729,1500.0
5.739,1500.0
5.749,1500.0
5.76,1500.0
5.769,1500.0
5.779,1530.0
5.789,1500.0
5.799,1500.0
5.809,1500.0
5.819,1500.0
5.829,1500.0
5.839,1500.0
5.849,1500.0
5.859,1500.0
5.869,1500.0
5.879,1500.0
5.889,1500.0
5.899,1500.0
5.909,1530.0
5.919,1500.0
5.929,1500.0
5.939,1500.0
5.949,1500.0
5.959,1500.0
5.969,1470.0
5.979,1530.0
5.989,1500.0
5.999,1500.0
6.009,1470.0
6.019,1500.0
6.029,1500.0
6.039,1500.0
6.049,1470.0
6.06,1500.0
6.069,1500.0
6.079,1500.0
6.089,1470.0
6.099,1500.0
6.109,1500.0
6.119,1470.0
6.129,1500.0
6.139,1500.0
6.149,1500.0
6.159,1470.0
6.169,1500.0
6.179,1500.0
6.189,1500.0
6.199,1500.0
6.209,1470.0
6.219,1500.0
6.23,1530.0
6.239,1470.0
6.249,1500.0
6.259,1500.0
6.269,1500.0
6.279,1500.0
6.289,1470.0
6.299,1500.0
6.309,1530.0
6.319,1500.0
6.329,1470.0
6.339,1530.0
6.349,1500.0
6.359,1500.0
6.369,1500.0
6.379,1500.0
6.389,1500.0
6.4,1500.0
6.409,1500.0
6.419,1500.0
6.429,1530.0
6.439,1500.0
6.449,1500.0
6.459,1500.0
6.469,1500.0
6.479,1500.0
6.489,1470.0
6.499,1530.0
6.509,1500.0
6.519,1500.0
6.789,1500.0
6.799,1500.0
6.809,1500.0
6.819,1500.0
6.829,1500.0
6.839,1500.0
6.849,1500.0
6.859,1500.0
6.87,1530.0
6.879,1470.0
6.889,1500.0
6.899,1530.0
6.909,1500.0
6.919,1500.0
6.929,1500.0
6.939,1500.0
6.949,1500.0
6.959,1500.0
6.969,1500.0
6.979,1500.0
6.989,1500.0
6.999,1500.0
7.009,1500.0
7.019,1500.0
7.029,1530.0
7.04,1500.0
7.049,1500.0
7.059,1500.0
7.069,1500.0
7.079,1500.0
7.089,1500.0
7.099,1500.0
7.109,1500.0
7.119,1500.0
7.129,1500.0
7.139,1500.0
7.149,1530.0
7.159,1500.0
7.169,1470.0
7.179,1530.0
7.189,1500.0
7.199,1500.0
7.209,1500.0
7.219,1500.0
7.229,1500.0
7.239,1500.0
7.249,1500.0
7.259,1500.0
7.269,1500.0
7.279,1500.0
7.289,1500.0
7.299,1500.0
7.309,1500.0
7.319,1500.0
7.329,1500.0
7.34,1500.0
7.349,1500.0
7.359,1470.0
7.369,1470.0
7.379,1500.0
7.389,1500.0
7.399,1500.0
7.409,1470.0
7.419,1500.0
7.429,1500.0
7.439,1470.0
7.449,1500.0
7.459,1500.0
7.469,1500.0
7.479,1500.0
7.489,1500.0
7.499,1500.0
7.51,1530.0
7.519,1470.0
7.529,1500.0
7.539,1500.0
7.549,1530.0
7.559,1500.0
7.569,1470.0
7.579,1500.0
7.589,1500.0
7.599,1500.0
7.609,1500.0
7.619,1500.0
7.629,1500.0
7.639,1470.0
7.649,1500.0
7.659,1470.0
7.669,1500.0
7.68,1500.0
7.689,1470.0
7.699,1500.0
7.709,1530.0
7.719,1500.0
7.729,1500.0
7.739,1500.0
7.749,1500.0
7.759,1500.0
7.769,1500.0
7.779,1530.0
7.789,1500.0
7.799,1500.0
7.809,1500.0
7.819,1500.0
7.829,1500.0
7.839,1500.0
7.849,1500.0
7.859,1500.0
7.869,1500.0
7.879,1500.0
7.889,1500.0
7.899,1500.0
7.909,1500.0
7.919,1500.0
7.929,1500.0
7.939,1530.0
7.949,1500.0
7.959,1500.0
7.969,1500.0
7.98,1500.0
7.989,1500.0
7.999,1500.0
8.009,1500.0
8.019,1500.0
8.029,1500.0
8.039,1500.0
8.049,1500.0
8.059,1500.0
8.069,1530.0
8.079,1500.0
8.089,1500.0
8.099,1500.0
8.109,1500.0
8.119,1500.0
8.129,1500.0
8.139,1500.0
8.15,1500.0
8.159,1500.0
8.169,1500.0
8.179,1500.0
8.189,1530.0
8.199,1500.0
8.209,1500.0
8.219,1500.0
8.229,1500.0
8.239,1500.0
8.249,1500.0
8.259,1500.0
8.269,1500.0
8.279,1500.0
8.289,1500.0
8.299,1500.0
8.309,1500.0
8.32,1500.0
8.329,1500.0
8.339,1530.0
8.349,1500.0
8.359,1500.0
8.369,1500.0
8.379,1500.0
8.389,1500.0
8.399,1500.0
8.409,1500.0
8.419,1500.0
8.429,1500.0
8.439,1500.0
8.449,1500.0
8.459,1500.0
8.469,1530.0
8.479,1500.0
8.489,1500.0
8.499,1500.0
8.509,1500.0
8.519,1500.0
8.529,1500.0
8.539,1500.0
8.549,1500.0
8.559,1500.0
8.569,1500.0
8.579,1500.0
8.589,1500.0
8.599,1470.0
8.609,1500.0
8.62,1500.0
8.629,1500.0
8.639,1470.0
8.649,1500.0
8.659,1470.0
8.669,1500.0
8.679,1500.0
8.689,1470.0
8.699,1500.0
8.709,1500.0
8.719,1500.0
8.729,1500.0
8.739,1500.0
8.749,1500.0
8.759,1500.0
8.769,1470.0
8.779,1500.0
9.049,1470.0
9.059,1530.0
9.069,1500.0
9.079,1500.0
9.089,1500.0
9.099,1500.0
9.109,1500.0
9.119,1500.0
9.129,1500.0
9.139,1500.0
9.149,1500.0
9.159,1500.0
9.169,1500.0
9.179,1500.0
9.189,1500.0
9.199,1500.0
9.209,1500.0
9.219,1530.0
9.229,1500.0
9.239,1500.0
9.249,1500.0
9.26,1500.0
9.269,1500.0
9.279,1500.0
9.289,1500.0
9.299,1500.0
9.309,1500.0
9.319,1500.0
9.329,1500.0
9.339,1530.0
9.349,1500.0
9.359,1500.0
9.369,1500.0
9.379,1500.0
9.389,1500.0
9.399,1500.0
9.409,1500.0
9.419,1500.0
9.43,1530.0
9.439,1470.0
9.449,1500.0
9.459,1500.0
9.469,1530.0
9.479,1500.0
9.489,1500.0
9.499,1500.0
9.509,1500.0
9.519,1500.0
9.529,1500.0
9.539,1500.0
9.549,1530.0
9.559,1500.0
9.569,1470.0
9.579,1530.0
9.589,1500.0
9.6,1500.0
9.609,1470.0
9.619,1530.0
9.629,1500.0
9.639,1500.0
9.649,1500.0
9.659,1500.0
9.669,1500.0
9.679,1500.0
9.689,1500.0
9.699,1500.0
9.709,1530.0
9.719,1500.0
9.729,1470.0
9.739,1530.0
9.749,1500.0
9.759,1500.0
9.769,1500.0
9.779,1500.0
9.789,1500.0
9.799,1500.0
9.809,1500.0
9.819,1500.0
9.829,1500.0
9.839,1500.0
9.849,1500.0
9.859,1500.0
9.869,1500.0
9.879,1470.0
9.889,1500.0
9.9,1500.0
9.909,1500.0
9.919,1470.0
9.929,1500.0
9.939,1500.0
9.949,1470.0
9.959,1500.0
9.969,1470.0
9.979,1500.0
9.989,1500.0
9.999,1500.0
10.009,1500.0
10.019,1500.0
10.029,1500.0
10.039,1500.0
10.049,1500.0
10.059,1500.0
10.07,1530.0
10.079,1500.0
10.089,1500.0
10.099,1500.0
10.109,1530.0
10.119,1500.0
10.129,1500.0
10.139,1500.0
10.149,1500.0
10.159,1500.0
10.169,1500.0
10.179,1500.0
10.189,1530.0
10.199,1500.0
10.209,1470.0
10.219,1500.0
10.229,1530.0
10.24,1470.0
10.249,1500.0
10.259,1530.0
10.269,1500.0
10.279,1500.0
10.289,1500.0
10.299,1500.0
10.309,1530.0
10.319,1470.0
10.329,1500.0
10.339,1500.0
10.349,1530.0
10.359,1500.0
10.369,1500.0
10.379,1500.0
10.389,1500.0
10.399,1500.0
10.409,1500.0
10.419,1500.0
10.429,1500.0
10.439,1500.0
10.449,1500.0
10.459,1500.0
10.469,1500.0
10.479,1500.0
10.489,1500.0
10.499,1500.0
10.509,1500.0
10.519,1470.0
10.529,1500.0
10.54,1500.0
10.549,1500.0
10.559,1470.0
10.569,1500.0
10.579,1470.0
10.589,1500.0
10.599,1500.0
10.609,1470.0
10.619,1500.0
10.629,1500.0
10.639,1500.0
10.649,1500.0
10.659,1500.0
10.669,1500.0
10.679,1500.0
10.689,1500.0
10.699,1470.0
10.71,1500.0
10.719,1500.0
10.729,1500.0
10.739,1500.0
10.749,1500.0
10.759,1470.0
10.769,1500.0
10.779,1470.0
10.789,1530.0
10.799,1470.0
10.809,1500.0
10.819,1500.0
10.829,1500.0
10.839,1500.0
10.849,1500.0
10.859,1500.0
10.869,1530.0
10.88,1500.0
10.889,1500.0
10.899,1500.0
10.909,1530.0
10.919,1500.0
10.929,1470.0
10.939,1530.0
10.949,1500.0
10.959,1500.0
10.969,1500.0
10.979,1500.0
10.989,1500.0
10.999,1500.0
11.009,1470.0
11.019,1500.0
11.029,1530.0
11.039,1500.0
11.319,1500.0
11.329,1500.0
11.339,1500.0
11.35,1530.0
11.359,1470.0
11.369,1500.0
11.379,1500.0
11.389,1500.0
11.399,1500.0
11.409,1500.0
11.419,1530.0
11.429,1500.0
11.439,1500.0
11.449,1500.0
11.459,1500.0
11.469,1500.0
11.479,1500.0
11.489,1500.0
11.499,1500.0
11.509,1530.0
11.52,1500.0
11.529,1470.0
11.539,1530.0
11.549,1500.0
11.559,1500.0
11.569,1500.0
11.579,1500.0
11.589,1500.0
11.599,1500.0
11.609,1500.0
11.619,1500.0
11.629,1530.0
11.639,1500.0
11.649,1500.0
11.659,1500.0
11.669,1500.0
11.679,1500.0
11.689,1470.0
11.699,1530.0
11.709,1500.0
11.719,1500.0
11.729,1470.0
11.739,1500.0
11.749,1530.0
11.759,1470.0
11.769,1500.0
11.779,1500.0
11.789,1500.0
11.799,1500.0
11.809,1500.0
11.82,1500.0
11.829,1500.0
11.839,1470.0
11.849,1500.0
11.859,1500.0
11.869,1500.0
11.879,1470.0
11.889,1500.0
11.899,1470.0
11.909,1500.0
11.919,1500.0
11.929,1500.0
11.939,1500.0
11.949,1500.0
11.959,1500.0
11.969,1500.0
11.979,1500.0
11.99,1530.0
11.999,1470.0
12.009,1500.0
12.019,1530.0
12.029,1500.0
12.039,1500.0
12.049,1500.0
12.059,1500.0
12.069,1500.0
12.079,1500.0
12.089,1500.0
12.099,1530.0
12.109,1500.0
12.119,1500.0
12.129,1500.0
12.139,1500.0
12.149,1530.0
12.16,1500.0
12.169,1500.0
12.179,1500.0
12.189,1500.0
12.199,1500.0
12.209,1500.0
12.219,1500.0
12.229,1500.0
12.239,1500.0
12.249,1500.0
12.259,1500.0
12.269,1500.0
12.279,1500.0
12.289,1500.0
12.299,1500.0
12.309,1500.0
12.319,1500.0
12.329,1500.0
12.339,1530.0
12.349,1500.0
12.359,1500.0
12.369,1500.0
12.379,1500.0
12.389,1500.0
12.399,1500.0
12.409,1500.0
12.419,1500.0
12.429,1500.0
12.439,1470.0
12.449,1500.0
12.46,1500.0
12.469,1500.0
12.479,1470.0
12.489,1470.0
12.499,1500.0
12.509,1500.0
12.519,1470.0
12.529,1500.0
12.539,1500.0
12.549,1500.0
12.559,1470.0
12.569,1500.0
12.579,1500.0
12.589,1500.0
12.599,1470.0
12.609,1500.0
12.619,1500.0
12.63,1470.0
12.639,1500.0
12.649,1500.0
12.659,1500.0
12.669,1500.0
12.679,1500.0
12.689,1470.0
12.699,1500.0
12.709,1530.0
12.719,1500.0
12.729,1500.0
12.739,1500.0
12.749,1530.0
12.759,1470.0
12.769,1500.0
12.779,1500.0
12.789,1530.0
12.8,1500.0
12.809,1500.0
12.819,1500.0
12.829,1500.0
12.839,1500.0
12.849,1500.0
12.859,1500.0
12.869,1500.0
12.879,1500.0
12.889,1500.0
12.899,1500.0
12.909,1530.0
12.919,1500.0
12.929,1470.0
12.939,1500.0
12.949,1530.0
12.959,1500.0
12.969,1500.0
12.979,1500.0
12.989,1500.0
12.999,1500.0
13.009,1500.0
13.019,1500.0
13.029,1500.0
13.039,1500.0
13.049,1500.0
13.059,1500.0
13.069,1500.0
13.079,1500.0
13.089,1500.0
13.1,1500.0
13.109,1500.0
13.119,1470.0
13.129,1500.0
13.139,1470.0
13.149,1500.0
13.159,1500.0
13.169,1470.0
13.179,1500.0
13.189,1500.0
13.199,1470.0
13.209,1500.0
13.219,1500.0
13.229,1500.0
13.239,1500.0
13.249,1500.0
13.259,1500.0
13.27,1500.0
13.279,1500.0
13.289,1500.0
13.299,1500.0
13.309,1500.0
13.599,1500.0
13.609,1470.0
13.619,1530.0
13.629,1500.0
13.639,1500.0
13.649,1470.0
13.659,1500.0
13.669,1530.0
13.679,1500.0
13.689,1470.0
13.699,1500.0
13.709,1530.0
13.719,1500.0
13.729,1500.0
13.74,1500.0
13.749,1500.0
13.759,1500.0
13.769,1500.0
13.779,1500.0
13.789,1530.0
13.799,1500.0
13.809,1500.0
13.819,1500.0
13.829,1500.0
13.839,1500.0
13.849,1500.0
13.859,1500.0
13.869,1500.0
13.879,1500.0
13.889,1500.0
13.899,1500.0
13.91,1500.0
13.919,1500.0
13.929,1500.0
13.939,1530.0
13.949,1500.0
13.959,1500.0
13.969,1500.0
13.979,1500.0
13.989,1500.0
13.999,1500.0
14.009,1500.0
14.019,1500.0
14.029,1530.0
14.039,1500.0
14.049,1500.0
14.059,1500.0
14.069,1500.0
14.08,1500.0
14.089,1500.0
14.099,1500.0
14.109,1500.0
14.119,1500.0
14.129,1500.0
14.139,1500.0
14.149,1500.0
14.159,1500.0
14.169,1500.0
14.179,1530.0
14.189,1500.0
14.199,1500.0
14.209,1500.0
14.219,1500.0
14.229,1500.0
14.239,1500.0
14.249,1500.0
14.259,1500.0
14.269,1500.0
14.279,1500.0
14.289,1500.0
14.299,1500.0
14.309,1500.0
14.319,1500.0
14.329,1500.0
14.339,1500.0
14.349,1530.0
14.359,1500.0
14.369,1470.0
14.38,1530.0
14.389,1500.0
14.399,1500.0
14.409,1500.0
14.419,1500.0
14.429,1500.0
14.439,1500.0
14.449,1500.0
14.459,1500.0
14.469,1530.0
14.479,1500.0
14.489,1470.0
14.499,1530.0
14.509,1500.0
14.519,1500.0
14.529,1500.0
14.539,1500.0
14.55,1500.0
14.559,1500.0
14.569,1500.0
14.579,1500.0
14.589,1530.0
14.599,1500.0
14.609,1500.0
14.619,1500.0
14.629,1500.0
14.639,1500.0
14.649,1500.0
14.659,1500.0
14.669,1530.0
14.679,1500.0
14.689,1470.0
14.699,1500.0
14.709,1530.0
14.72,1470.0
14.729,1500.0
14.739,1530.0
14.749,1500.0
14.759,1500.0
14.769,1500.0
14.779,1500.0
14.789,1530.0
14.799,1500.0
14.809,1500.0
14.819,1500.0
14.829,1500.0
14.839,1470.0
14.849,1500.0
14.859,1500.0
14.869,1530.0
14.879,1470.0
14.889,1500.0
14.899,1530.0
14.909,1500.0
14.919,1500.0
14.929,1500.0
14.939,1500.0
14.949,1530.0
14.959,1470.0
14.969,1500.0
14.979,1500.0
14.989,1500.0
14.999,1500.0
15.009,1500.0
15.02,1500.0
15.029,1500.0
15.039,1470.0
15.049,1470.0
15.059,1500.0
15.069,1500.0
15.079,1470.0
15.089,1500.0
15.099,1470.0
15.109,1500.0
15.119,1500.0
15.129,1500.0
15.139,1500.0
15.149,1500.0
15.159,1500.0
15.169,1470.0
15.179,1500.0
15.19,1500.0
15.199,1500.0
15.209,1500.0
15.219,1500.0
15.229,1470.0
15.239,1500.0
15.249,1470.0
15.259,1500.0
15.269,1500.0
15.279,1500.0
15.289,1500.0
15.299,1500.0
15.309,1500.0
15.319,1500.0
15.329,1500.0
15.339,1500.0
15.349,1530.0
15.36,1500.0
15.369,1500.0
15.379,1500.0
15.389,1500.0
15.399,1500.0
15.409,1500.0
15.419,1500.0
15.429,1530.0
15.439,1500.0
15.449,1500.0
15.459,1500.0
15.469,1500.0
15.479,1500.0
15.489,1470.0
15.499,1500.0
15.509,1530.0
15.519,1500.0
15.529,1500.0
15.539,1500.0
15.549,1500.0
15.559,1500.0
15.569,1500.0
15.579,1500.0
15.589,1500.0
15.879,1500.0
15.889,1500.0
15.899,1500.0
15.909,1500.0
15.919,1500.0
15.929,1500.0
15.939,1500.0
15.949,1530.0
15.959,1470.0
15.969,1500.0
15.979,1500.0
15.989,1530.0
16.0,1500.0
16.009,1470.0
16.019,1530.0
16.029,1500.0
16.039,1500.0
16.049,1500.0
16.059,1500.0
16.069,1500.0
16.079,1500.0
16.089,1500.0
16.099,1530.0
16.109,1500.0
16.119,1500.0
16.129,1470.0
16.139,1500.0
16.149,1530.0
16.159,1500.0
16.169,1470.0
16.179,1500.0
16.189,1530.0
16.199,1500.0
16.209,1470.0
16.219,1530.0
16.229,1500.0
16.239,1500.0
16.249,1470.0
16.259,1500.0
16.269,1500.0
16.279,1500.0
16.289,1500.0
16.3,1470.0
16.309,1500.0
16.319,1500.0
16.329,1470.0
16.339,1500.0
16.349,1500.0
16.359,1470.0
16.369,1500.0
16.379,1470.0
16.389,1530.0
16.399,1470.0
16.409,1500.0
16.419,1500.0
16.429,1500.0
16.439,1500.0
16.449,1470.0
16.459,1500.0
16.47,1500.0
16.479,1500.0
16.489,1500.0
16.499,1500.0
16.509,1500.0
16.519,1470.0
16.529,1500.0
16.539,1500.0
16.549,1500.0
16.559,1500.0
16.569,1500.0
16.579,1500.0
16.589,1500.0
16.599,1500.0
16.609,1500.0
16.619,1500.0
16.629,1530.0
16.64,1500.0
16.649,1500.0
16.659,1500.0
16.669,1500.0
16.679,1500.0
16.689,1500.0
16.699,1500.0
16.709,1530.0
16.719,1500.0
16.729,1470.0
16.739,1500.0
16.749,1530.0
16.759,1500.0
16.769,1500.0
16.779,1500.0
16.789,1500.0
16.799,1500.0
16.809,1500.0
16.819,1500.0
16.829,1500.0
16.839,1500.0
16.849,1470.0
