Tempo (s),RPM
0.009,6.4
0.019,19.2
0.029,32.0
0.039,44.704
0.049,57.216
0.059,69.344
0.069,80.896
0.079,91.776
0.089,101.792
0.099,110.944
0.109,119.136
0.119,126.368
0.129,132.736
0.139,138.336
0.149,143.168
0.159,147.328
0.169,151.008
0.179,154.208
0.189,156.928
0.199,159.36
0.209,161.504
0.219,163.36
0.229,165.12
0.239,166.688
0.249,168.064
0.259,169.248
0.269,170.432
0.279,171.52
0.289,172.416
0.3,173.408
0.309,174.4
0.319,175.296
0.329,176.192
0.339,176.992
0.349,177.696
0.359,178.4
0.369,179.104
0.379,179.712
0.389,180.32
0.399,180.928
0.409,181.44
0.419,181.952
0.429,182.464
0.439,183.072
0.449,183.68
0.459,184.288
0.47,184.896
0.479,185.312
0.489,185.728
0.499,186.144
0.509,186.464
0.519,186.88
0.529,187.2
0.539,187.424
0.549,187.744
0.559,187.968
0.569,188.192
0.579,188.512
0.589,188.832
0.599,189.152
0.609,189.472
0.619,189.696
0.629,189.824
0.64,190.048
0.649,190.272
0.659,190.4
0.669,190.624
0.679,190.848
0.689,190.976
0.699,191.104
0.709,191.328
0.719,191.552
0.729,191.68
0.739,191.808
0.749,191.936
0.759,192.064
0.769,192.192
0.779,192.32
0.789,192.448
0.799,192.576
0.809,192.608
0.819,192.64
0.829,192.768
0.839,192.896
0.849,193.024
0.859,193.152
0.869,193.28
0.879,193.312
0.889,193.344
0.899,193.472
0.909,193.504
0.919,193.536
0.929,193.664
0.94,193.792
0.949,193.92
0.959,193.952
0.969,193.984
0.979,194.112
0.989,194.24
0.999,194.368
1.009,194.496
1.019,194.528
1.029,194.56
1.039,194.592
1.049,194.624
1.059,194.752
1.069,194.88
1.079,195.008
1.089,195.04
1.099,195.072
1.11,195.104
1.119,195.136
1.129,195.168
1.139,195.2
1.149,195.328
1.159,195.456
1.169,195.584
1.179,195.712
1.189,195.84
1.199,195.968
1.209,196.096
1.219,196.224
1.229,196.352
1.239,196.384
1.249,196.416
1.259,196.448
1.269,196.48
1.28,196.608
1.289,196.64
1.299,196.672
1.309,196.8
1.319,196.832
1.329,196.864
1.339,196.992
1.349,197.024
1.359,196.96
1.369,196.992
1.379,197.12
1.389,197.152
1.399,197.184
1.409,197.216
1.419,197.152
1.429,197.184
1.439,197.216
1.449,197.152
1.459,197.088
1.469,197.12
1.479,197.248
1.489,197.28
1.499,197.216
1.509,197.248
1.519,197.376
1.529,197.408
1.539,197.344
1.549,197.376
1.559,197.408
1.569,197.344
1.58,197.376
1.589,197.504
1.599,197.632
1.609,197.664
1.619,197.6
1.629,197.632
1.639,197.76
1.649,197.792
1.659,197.728
1.669,197.76
1.679,197.792
1.689,197.728
1.699,197.76
1.709,197.792
1.719,197.729
1.729,197.665
1.739,197.601
1.75,197.537
1.759,197.569
1.769,197.697
1.779,197.825
1.789,197.857
1.799,197.793
1.809,197.729
1.819,197.761
1.829,197.793
1.839,197.825
1.849,197.953
1.859,197.985
1.869,197.921
1.879,197.953
1.889,197.985
1.899,197.921
1.909,197.953
1.92,198.081
1.929,198.113
1.939,198.145
1.949,198.273
1.959,198.401
1.969,198.433
1.979,198.369
1.989,198.305
1.999,198.337
2.259,198.113
2.269,198.145
2.279,198.177
2.289,198.113
2.299,198.145
2.309,198.273
2.319,198.305
2.329,198.241
2.339,198.177
2.349,198.209
2.359,198.337
2.369,198.369
2.379,198.305
2.39,198.337
2.399,198.465
2.409,198.593
2.419,198.625
2.429,198.657
2.439,198.689
2.449,198.721
2.459,198.753
2.469,198.785
2.479,198.913
2.489,198.945
2.499,198.881
2.509,198.913
2.519,198.945
2.529,198.881
2.539,198.913
2.549,198.945
2.56,198.881
2.569,198.913
2.579,198.945
2.589,198.881
2.599,198.913
2.609,199.041
2.619,199.169
2.629,199.201
2.639,199.137
2.649,199.073
2.659,199.105
2.669,199.137
2.679,199.073
2.689,199.105
2.699,199.233
2.709,199.361
2.719,199.393
2.729,199.33
2.739,199.266
2.749,199.298
2.759,199.33
2.769,199.362
2.779,199.394
2.789,199.33
2.799,199.266
2.809,199.298
2.819,199.33
2.829,199.362
2.839,199.394
2.849,199.33
2.86,199.266
2.869,199.202
2.879,199.138
2.889,199.17
2.899,199.202
2.909,199.138
2.919,199.17
2.929,199.298
2.939,199.33
2.949,199.266
2.959,199.298
2.969,199.33
2.979,199.266
2.989,199.298
2.999,199.33
3.009,199.362
3.019,199.49
3.03,199.522
3.039,199.458
3.049,199.394
3.059,199.33
3.069,199.266
3.079,199.202
3.089,199.138
3.099,199.074
3.109,199.106
3.119,199.138
3.129,199.17
3.139,199.202
3.149,199.138
3.159,199.17
3.169,199.202
3.179,199.138
3.189,199.17
3.2,199.298
3.209,199.33
3.219,199.266
3.229,199.298
3.239,199.33
3.249,199.362
3.259,199.49
3.269,199.522
3.279,199.554
3.289,199.586
3.299,199.522
3.309,199.458
3.319,199.394
3.329,199.33
3.339,199.362
3.349,199.49
3.359,199.522
3.369,199.554
3.379,199.586
3.389,199.522
3.399,199.458
3.409,199.394
3.419,199.33
3.429,199.266
3.439,199.298
3.449,199.33
3.459,199.362
3.469,199.394
3.479,199.33
3.489,199.266
3.5,199.202
3.509,199.138
3.519,199.17
3.529,199.202
3.539,199.138
3.549,199.074
3.559,199.01
3.569,198.946
3.579,198.978
3.589,199.106
3.599,199.042
3.609,198.978
3.619,199.01
3.629,198.947
3.639,198.883
3.649,198.819
3.659,198.755
3.67,198.691
3.679,198.627
3.689,198.563
3.699,198.499
3.709,198.435
3.719,198.371
3.729,198.307
3.739,198.243
3.749,198.179
3.759,198.211
3.769,198.243
3.779,198.179
3.789,198.115
3.799,198.051
3.809,197.987
3.819,198.019
3.829,198.051
3.84,197.987
3.849,198.019
3.859,198.051
3.869,197.987
3.879,198.019
3.889,198.147
3.899,198.179
3.909,198.115
3.919,198.051
3.929,197.987
3.939,198.019
3.949,198.051
3.959,197.987
3.969,197.923
3.979,197.955
3.989,198.083
3.999,198.211
4.009,198.339
4.019,198.371
4.029,198.307
4.039,198.243
4.049,198.179
4.059,198.115
4.069,198.147
4.079,198.179
4.089,198.211
4.099,198.243
4.109,198.179
4.119,198.115
4.129,198.051
4.14,197.987
4.149,198.019
4.159,198.051
4.169,197.987
4.179,197.923
4.189,197.955
4.199,198.083
4.209,198.211
4.219,198.243
4.229,198.179
4.239,198.211
4.249,198.243
4.509,197.635
4.519,197.667
4.529,197.603
4.539,197.635
4.549,197.763
4.559,197.795
4.569,197.827
4.579,197.955
4.589,197.987
4.599,198.019
4.609,198.052
4.619,197.988
4.629,198.02
4.639,198.148
4.649,198.276
4.659,198.404
4.669,198.436
4.679,198.372
4.689,198.404
4.699,198.532
4.709,198.564
4.719,198.596
4.729,198.628
4.739,198.564
4.749,198.596
4.759,198.628
4.769,198.564
4.78,198.5
4.789,198.436
4.799,198.372
4.809,198.404
4.819,198.532
4.829,198.564
4.839,198.596
4.849,198.628
4.859,198.564
4.869,198.5
4.879,198.436
4.889,198.372
4.899,198.308
4.909,198.34
4.919,198.372
4.929,198.404
4.939,198.436
4.95,198.372
4.959,198.308
4.969,198.244
4.979,198.18
4.989,198.212
4.999,198.244
5.009,198.18
5.019,198.116
5.029,198.148
5.039,198.18
5.049,198.212
5.059,198.244
5.069,198.18
5.079,198.116
5.089,198.148
5.099,198.18
5.109,198.116
5.12,198.052
5.129,197.988
5.139,198.02
5.149,198.148
5.159,198.276
5.169,198.404
5.179,198.436
5.189,198.372
5.199,198.404
5.209,198.436
5.219,198.468
5.229,198.5
5.239,198.532
5.249,198.66
5.259,198.788
5.269,198.82
5.279,198.756
5.289,198.692
5.299,198.628
5.309,198.564
5.319,198.596
5.329,198.628
5.339,198.564
5.349,198.596
5.359,198.628
5.369,198.564
5.379,198.5
5.389,198.436
5.399,198.372
5.409,198.308
5.42,198.244
5.429,198.18
5.439,198.116
5.449,198.052
5.459,197.988
5.469,197.924
5.479,197.86
5.489,197.796
5.499,197.828
5.509,197.956
5.519,198.084
5.529,198.212
5.539,198.244
5.549,198.18
5.559,198.116
5.569,198.052
5.579,197.989
5.59,198.021
5.599,198.149
5.609,198.277
5.619,198.309
5.629,198.245
5.639,198.181
5.649,198.213
5.659,198.245
5.669,198.277
5.679,198.309
5.689,198.245
5.699,198.181
5.709,198.117
5.719,198.053
5.729,198.085
5.739,198.213
5.749,198.245
5.76,198.181
5.769,198.117
5.779,198.053
5.789,197.989
5.799,198.021
5.809,198.149
5.819,198.277
5.829,198.405
5.839,198.437
5.849,198.373
5.859,198.309
5.869,198.245
5.879,198.181
5.889,198.213
5.899,198.341
5.909,198.469
5.919,198.501
5.929,198.437
5.939,198.373
5.949,198.405
5.959,198.437
5.969,198.373
5.979,198.405
5.989,198.437
5.999,198.469
6.009,198.501
6.019,198.437
6.029,198.469
6.039,198.597
6.049,198.629
6.06,198.565
6.069,198.597
6.079,198.725
6.089,198.853
6.099,198.885
6.109,198.821
6.119,198.853
6.129,198.981
6.139,199.013
6.149,199.045
6.159,199.173
6.169,199.205
6.179,199.141
6.189,199.077
6.199,199.013
6.209,198.949
6.219,198.885
6.23,198.821
6.239,198.757
6.249,198.789
6.259,198.821
6.269,198.853
6.279,198.981
6.289,199.013
6.299,199.045
6.309,199.077
6.319,199.013
6.329,198.949
6.339,198.981
6.349,199.013
6.359,198.949
6.369,198.981
6.379,199.109
6.389,199.237
6.4,199.269
6.409,199.205
6.419,199.141
6.429,199.077
6.439,199.013
6.449,198.949
6.459,198.981
6.469,199.109
6.479,199.237
6.489,199.269
6.499,199.205
6.759,198.214
6.769,198.342
6.779,198.47
6.789,198.502
6.799,198.438
6.809,198.374
6.819,198.406
6.829,198.438
6.839,198.47
6.849,198.598
6.859,198.63
6.87,198.662
6.879,198.694
6.889,198.63
6.899,198.662
6.909,198.79
6.919,198.822
6.929,198.854
6.939,198.886
6.949,198.822
6.959,198.854
6.969,198.886
6.979,198.822
6.989,198.758
6.999,198.694
7.009,198.63
7.019,198.662
7.029,198.79
7.04,198.822
7.049,198.758
7.059,198.694
7.069,198.63
7.079,198.566
7.089,198.598
7.099,198.63
7.109,198.662
7.119,198.694
7.129,198.63
7.139,198.566
7.149,198.598
7.159,198.63
7.169,198.662
7.179,198.694
7.189,198.63
7.199,198.566
7.209,198.598
7.219,198.63
7.229,198.662
7.239,198.694
7.249,198.63
7.259,198.662
7.269,198.694
7.279,198.63
7.289,198.566
7.299,198.598
7.309,198.63
7.319,198.662
7.329,198.79
7.34,198.822
7.349,198.854
7.359,198.886
7.369,198.822
7.379,198.854
7.389,198.886
7.399,198.822
7.409,198.854
7.419,198.886
7.429,198.822
7.439,198.758
7.449,198.79
7.459,198.918
7.469,199.046
7.479,199.078
7.489,199.014
7.499,198.95
7.51,198.982
7.519,199.014
7.529,199.046
7.539,199.078
7.549,199.014
7.559,198.95
7.569,198.887
7.579,198.823
7.589,198.759
7.599,198.695
7.609,198.631
7.619,198.663
7.629,198.791
7.639,198.823
7.649,198.759
7.659,198.695
7.669,198.631
7.68,198.663
7.689,198.791
7.699,198.823
7.709,198.855
7.719,198.887
7.729,198.823
7.739,198.855
7.749,198.887
7.759,198.823
7.769,198.759
7.779,198.695
7.789,198.631
7.799,198.663
7.809,198.695
7.819,198.631
7.829,198.663
7.839,198.695
7.849,198.631
7.859,198.663
7.869,198.695
7.879,198.631
7.889,198.663
7.899,198.791
7.909,198.919
7.919,199.047
7.929,199.079
7.939,199.015
7.949,199.047
7.959,199.175
7.969,199.207
7.98,199.239
7.989,199.367
7.999,199.399
8.009,199.431
8.019,199.463
8.029,199.399
8.039,199.431
8.049,199.463
8.059,199.399
8.069,199.431
8.079,199.463
8.089,199.399
8.099,199.431
8.109,199.559
8.119,199.591
8.129,199.623
8.139,199.655
8.15,199.591
8.159,199.623
8.169,199.655
8.179,199.591
8.189,199.623
8.199,199.655
8.209,199.591
8.219,199.623
8.229,199.655
8.239,199.591
8.249,199.623
8.259,199.655
8.269,199.591
8.279,199.623
8.289,199.751
8.299,199.783
8.309,199.815
8.32,199.847
8.329,199.783
8.339,199.815
8.349,199.847
8.359,199.783
8.369,199.815
8.379,199.847
8.389,199.783
8.399,199.719
8.409,199.655
8.419,199.591
8.429,199.623
8.439,199.655
8.449,199.591
8.459,199.623
8.469,199.655
8.479,199.591
8.489,199.527
8.499,199.463
8.509,199.399
8.519,199.431
8.529,199.463
8.539,199.399
8.549,199.432
8.559,199.464
8.569,199.496
8.579,199.624
8.589,199.656
8.599,199.592
8.609,199.528
8.62,199.464
8.629,199.4
8.639,199.336
8.649,199.272
8.659,199.208
8.669,199.24
8.679,199.272
8.689,199.208
8.699,199.24
8.709,199.272
8.719,199.208
8.729,199.24
8.739,199.272
8.749,199.208
9.009,198.216
9.019,198.152
9.029,198.28
9.039,198.312
9.049,198.344
9.059,198.472
9.069,198.504
9.079,198.44
9.089,198.472
9.099,198.6
9.109,198.728
9.119,198.76
9.129,198.696
9.139,198.632
9.149,198.664
9.159,198.696
9.169,198.632
9.179,198.664
9.189,198.792
9.199,198.92
9.209,198.952
9.219,198.888
9.229,198.824
9.239,198.856
9.249,198.888
9.26,198.92
9.269,199.048
9.279,199.08
9.289,199.016
9.299,198.952
9.309,198.888
9.319,198.92
9.329,199.048
9.339,199.08
9.349,199.016
9.359,199.048
9.369,199.08
9.379,199.112
9.389,199.24
9.399,199.272
9.409,199.304
9.419,199.336
9.43,199.272
9.439,199.208
9.449,199.144
9.459,199.08
9.469,199.016
9.479,198.952
9.489,198.888
9.499,198.824
9.509,198.856
9.519,198.888
9.529,198.824
9.539,198.857
9.549,198.985
9.559,199.113
9.569,199.241
9.579,199.273
9.589,199.305
9.6,199.337
9.609,199.273
9.619,199.209
9.629,199.145
9.639,199.081
9.649,199.113
9.659,199.241
9.669,199.273
9.679,199.209
9.689,199.145
9.699,199.081
9.709,199.017
9.719,198.953
9.729,198.889
9.739,198.825
9.749,198.761
9.759,198.697
9.769,198.729
9.779,198.761
9.789,198.697
9.799,198.633
9.809,198.569
9.819,198.505
9.829,198.537
9.839,198.665
9.849,198.697
9.859,198.633
9.869,198.569
9.879,198.505
9.889,198.441
9.9,198.473
9.909,198.505
9.919,198.537
9.929,198.569
9.939,198.505
9.949,198.441
9.959,198.377
9.969,198.313
9.979,198.249
9.989,198.281
9.999,198.409
10.009,198.537
10.019,198.569
10.029,198.505
10.039,198.441
10.049,198.377
10.059,198.313
10.07,198.345
10.079,198.473
10.089,198.505
10.099,198.537
10.109,198.569
10.119,198.505
10.129,198.441
10.139,198.473
10.149,198.601
10.159,198.729
10.169,198.761
10.179,198.697
10.189,198.729
10.199,198.857
10.209,198.889
10.219,198.825
10.229,198.761
10.24,198.697
10.249,198.729
10.259,198.761
10.269,198.697
10.279,198.633
10.289,198.569
10.299,198.505
10.309,198.537
10.319,198.665
10.329,198.697
10.339,198.729
10.349,198.761
10.359,198.697
10.369,198.729
10.379,198.761
10.389,198.697
10.399,198.633
10.409,198.569
10.419,198.505
10.429,198.441
10.439,198.378
10.449,198.314
10.459,198.346
10.469,198.474
10.479,198.506
10.489,198.538
10.499,198.666
10.509,198.698
10.519,198.73
10.529,198.858
10.54,198.89
10.549,198.922
10.559,199.05
10.569,199.082
10.579,199.114
10.589,199.146
10.599,199.082
10.609,199.018
10.619,198.954
10.629,198.89
10.639,198.922
10.649,198.954
10.659,198.89
10.669,198.826
10.679,198.858
10.689,198.89
10.699,198.922
10.71,198.954
10.719,198.89
10.729,198.922
10.739,199.05
10.749,199.082
10.759,199.114
10.769,199.146
10.779,199.082
10.789,199.114
10.799,199.242
10.809,199.274
10.819,199.21
10.829,199.146
10.839,199.082
10.849,199.114
10.859,199.242
10.869,199.37
10.88,199.498
10.889,199.53
10.899,199.466
10.909,199.498
10.919,199.53
10.929,199.466
10.939,199.498
10.949,199.626
10.959,199.658
10.969,199.69
10.979,199.722
10.989,199.658
10.999,199.69
11.259,198.89
11.269,198.922
11.279,198.954
11.289,198.89
11.299,198.826
11.309,198.762
11.319,198.698
11.329,198.73
11.339,198.858
11.35,198.891
11.359,198.827
11.369,198.763
11.379,198.699
11.389,198.731
11.399,198.763
11.409,198.795
11.419,198.923
11.429,198.955
11.439,198.987
11.449,199.115
11.459,199.147
11.469,199.083
11.479,199.115
11.489,199.147
11.499,199.083
11.509,199.019
11.52,199.051
11.529,199.179
11.539,199.307
11.549,199.339
11.559,199.275
11.569,199.211
11.579,199.147
11.589,199.179
11.599,199.307
11.609,199.339
11.619,199.275
11.629,199.307
11.639,199.435
11.649,199.467
11.659,199.499
11.669,199.531
11.679,199.563
11.689,199.691
11.699,199.723
11.709,199.659
11.719,199.691
11.729,199.723
11.739,199.755
11.749,199.883
11.759,199.915
11.769,199.851
11.779,199.787
11.789,199.723
11.799,199.659
11.809,199.691
11.82,199.723
11.829,199.659
11.839,199.691
11.849,199.723
11.859,199.659
11.869,199.691
11.879,199.723
11.889,199.659
11.899,199.691
11.909,199.723
11.919,199.755
11.929,199.787
11.939,199.723
11.949,199.659
11.959,199.595
11.969,199.531
11.979,199.467
11.99,199.403
11.999,199.339
12.009,199.371
12.019,199.499
12.029,199.531
12.039,199.467
12.049,199.499
12.059,199.531
12.069,199.467
12.079,199.403
12.089,199.339
12.099,199.275
12.109,199.307
12.119,199.339
12.129,199.275
12.139,199.307
12.149,199.339
12.16,199.371
12.169,199.403
12.179,199.339
12.189,199.275
12.199,199.211
12.209,199.147
12.219,199.083
12.229,199.019
12.239,198.955
12.249,198.987
12.259,199.019
12.269,198.955
12.279,198.891
12.289,198.923
12.299,198.956
12.309,198.892
12.319,198.924
12.329,199.052
12.339,199.084
12.349,199.02
12.359,198.956
12.369,198.988
12.379,199.116
12.389,199.148
12.399,199.18
12.409,199.212
12.419,199.148
12.429,199.084
12.439,199.116
12.449,199.148
12.46,199.084
12.469,199.116
12.479,199.148
12.489,199.084
12.499,199.116
12.509,199.148
12.519,199.18
12.529,199.308
12.539,199.34
12.549,199.372
12.559,199.404
12.569,199.34
12.579,199.276
12.589,199.308
12.599,199.436
12.609,199.564
12.619,199.596
12.63,199.532
12.639,199.468
12.649,199.404
12.659,199.34
12.669,199.276
12.679,199.308
12.689,199.34
12.699,199.372
12.709,199.5
12.719,199.532
12.729,199.564
12.739,199.692
12.749,199.724
12.759,199.66
12.769,199.692
12.779,199.82
12.789,199.948
12.8,200.076
12.809,200.108
12.819,200.044
12.829,200.076
12.839,200.108
12.849,200.044
12.859,199.98
12.869,199.916
12.879,199.852
12.889,199.788
12.899,199.724
12.909,199.66
12.919,199.692
12.929,199.82
12.939,199.948
12.949,199.98
12.959,199.916
12.969,199.948
12.979,199.98
12.989,199.916
12.999,199.852
13.009,199.788
13.019,199.724
13.029,199.66
13.039,199.596
13.049,199.532
13.059,199.468
13.069,199.404
13.079,199.34
13.089,199.276
13.1,199.212
13.109,199.148
13.119,199.084
13.129,199.02
13.139,198.956
13.149,198.988
13.159,199.116
13.169,199.148
13.179,199.18
13.189,199.212
13.199,199.149
13.209,199.085
13.219,199.117
13.229,199.149
13.239,199.181
13.249,199.309
13.519,198.253
13.529,198.189
13.539,198.221
13.549,198.349
13.559,198.381
13.569,198.317
13.579,198.349
13.589,198.477
13.599,198.605
13.609,198.637
13.619,198.573
13.629,198.605
13.639,198.637
13.649,198.573
13.659,198.509
13.669,198.541
13.679,198.573
13.689,198.605
13.699,198.637
13.709,198.573
13.719,198.509
13.729,198.541
13.74,198.573
13.749,198.605
13.759,198.637
13.769,198.573
13.779,198.605
13.789,198.733
13.799,198.861
13.809,198.989
13.819,199.021
13.829,198.957
13.839,198.989
13.849,199.117
13.859,199.149
13.869,199.085
13.879,199.021
13.889,198.957
13.899,198.989
13.91,199.117
13.919,199.149
13.929,199.181
13.939,199.213
13.949,199.245
13.959,199.373
13.969,199.405
13.979,199.341
13.989,199.373
13.999,199.405
14.009,199.341
14.019,199.277
14.029,199.213
14.039,199.149
14.049,199.085
14.059,199.021
14.069,198.957
14.08,198.989
14.089,199.021
14.099,198.957
14.109,198.989
14.119,199.117
14.129,199.149
14.139,199.181
14.149,199.213
14.159,199.149
14.169,199.085
14.179,199.021
14.189,198.957
14.199,198.893
14.209,198.829
14.219,198.765
14.229,198.797
14.239,198.925
14.249,198.957
14.259,198.989
14.269,199.021
14.279,198.957
14.289,198.893
14.299,198.925
14.309,198.957
14.319,198.989
14.329,199.022
14.339,199.054
14.349,199.182
14.359,199.31
14.369,199.342
14.38,199.374
14.389,199.406
14.399,199.342
14.409,199.374
14.419,199.406
14.429,199.342
14.439,199.374
14.449,199.406
14.459,199.342
14.469,199.374
14.479,199.406
14.489,199.342
14.499,199.374
14.509,199.406
14.519,199.342
14.529,199.374
14.539,199.406
14.55,199.342
14.559,199.374
14.569,199.406
14.579,199.438
14.589,199.566
14.599,199.598
14.609,199.534
14.619,199.47
14.629,199.406
14.639,199.342
14.649,199.374
14.659,199.406
14.669,199.438
14.679,199.47
14.689,199.406
14.699,199.342
14.709,199.278
14.72,199.214
14.729,199.15
14.739,199.086
14.749,199.022
14.759,198.958
14.769,198.894
14.779,198.83
14.789,198.766
14.799,198.702
14.809,198.638
14.819,198.574
14.829,198.51
14.839,198.446
14.849,198.382
14.859,198.414
14.869,198.446
14.879,198.382
14.889,198.414
14.899,198.446
14.909,198.478
14.919,198.51
14.929,198.446
14.939,198.478
14.949,198.606
14.959,198.638
14.969,198.574
14.979,198.51
14.989,198.446
14.999,198.478
15.009,198.606
15.02,198.638
15.029,198.574
15.039,198.606
15.049,198.734
15.059,198.862
15.069,198.99
15.079,199.022
15.089,198.958
15.099,198.894
15.109,198.83
15.119,198.766
15.129,198.798
15.139,198.83
15.149,198.862
15.159,198.99
15.169,199.022
15.179,198.958
15.19,198.99
15.199,198.926
15.209,198.766
15.219,198.798
15.229,198.83
15.239,198.766
15.249,198.702
15.259,198.638
15.269,198.574
15.279,198.51
15.289,198.446
15.299,198.382
15.309,198.415
15.319,198.447
15.329,198.383
15.339,198.319
15.349,198.255
15.36,198.191
15.369,198.127
15.379,198.063
15.389,197.999
15.399,197.935
15.409,197.871
15.419,197.807
15.429,197.743
15.439,197.679
15.449,197.711
15.459,197.839
15.469,197.967
15.479,197.999
15.489,198.031
15.499,198.063
15.509,197.999
15.779,197.231
15.789,197.167
15.799,197.103
15.809,197.135
15.819,197.167
15.83,197.103
15.839,197.135
15.849,197.167
15.859,197.103
15.869,197.135
